0	51.96
0.005	-6.64
0.01	-250.78
0.015	-13.96
0.02	81.25
0.025	-194.63
0.03	-94.53
0.035	139.85
0.04	-106.74
0.045	-162.89
0.05	120.32
0.055	76.37
0.06	-145.80
0.065	122.76
0.07	215.53
0.075	-62.79
0.08	29.98
0.085	235.07
0.09	-40.82
0.095	-162.89
0.1	100.79
0.105	25.10
0.11	-233.69
0.115	-4.20
0.12	95.90
0.125	-189.75
0.13	-101.85
0.135	147.17
0.14	-92.09
0.145	-209.28
0.15	-65.23
0.155	-314.26
0.16	-570.61
0.165	20.22
0.17	891.81
0.175	1729.20
0.18	2791.30
0.185	2854.70
0.19	2857.20
0.195	2315.20
0.2	1580.30
0.205	738.00
0.21	-6.64
0.215	-45.70
0.22	-70.12
0.225	-404.59
0.23	-365.53
0.235	-167.77
0.24	-416.80
0.245	-514.46
0.25	-245.90
0.255	-309.38
0.26	-555.96
0.265	-297.17
0.27	-194.63
0.275	-455.86
0.28	-350.88
0.285	-84.76
0.29	-299.61
0.295	-370.41
0.3	-79.88
0.305	-136.03
0.31	-355.76
0.315	-121.39
0.32	-13.96
0.325	-265.43
0.33	-160.45
0.335	95.90
0.34	-106.74
0.345	-167.77
0.35	112.99
0.355	81.25
0.36	-136.03
0.365	112.99
0.37	242.39
0.375	-28.61
0.38	86.14
0.385	347.37
0.39	127.64
0.395	59.28
0.4	322.96
0.405	286.34
0.41	32.43
0.415	266.80
0.42	357.14
0.425	71.49
0.43	147.17
0.435	376.67
0.44	134.97
0.445	29.98
0.45	269.25
0.455	191.12
0.46	-82.32
0.465	112.99
0.47	183.79
0.475	-143.36
0.48	-89.65
0.485	105.67
0.49	-162.89
0.495	-277.64
0.5	-21.29
0.505	-101.85
0.51	-360.65
0.515	-143.36
0.52	-38.38
0.525	-341.12
0.53	-262.99
0.535	-9.08
0.54	-223.93
0.545	-321.58
0.55	-50.58
0.555	-96.97
0.56	-348.44
0.565	-121.39
0.57	-9.08
0.575	-287.40
0.58	-204.39
0.585	49.52
0.59	-175.10
0.595	-260.55
0.6	12.89
0.605	-26.17
0.61	-297.17
0.615	-55.47
0.62	51.96
0.625	-236.13
0.63	-145.80
0.635	83.70
0.64	-131.15
0.645	-231.25
0.65	27.54
0.655	-45.70
0.66	-297.17
0.665	-70.12
0.67	20.22
0.675	-248.34
0.68	-172.66
0.685	54.40
0.69	-162.89
0.695	-258.11
0.7	20.22
0.705	-38.38
0.71	-294.73
0.715	-57.91
0.72	47.07
0.725	-236.13
0.73	-150.68
0.735	83.70
0.74	-133.59
0.745	-228.81
0.75	51.96
0.755	-11.52
0.76	-282.52
0.765	-43.26
0.77	69.05
0.775	-204.39
0.78	-118.94
0.785	117.88
0.79	-96.97
0.795	-194.63
0.8	69.05
0.805	49.52
0.81	-209.28
0.815	61.72
0.82	208.21
0.825	-57.91
0.83	20.22
0.835	276.57
0.84	51.96
0.845	-87.21
0.85	156.94
0.855	54.40
0.86	-228.81
0.865	-6.64
0.87	98.34
0.875	-182.42
0.88	-109.18
0.885	127.64
0.89	-89.65
0.895	-204.39
0.9	54.40
0.905	-11.52
0.91	-346.00
0.915	-324.03
0.92	-314.26
0.925	-450.98
0.93	203.33
0.935	1460.70
0.94	2390.90
0.945	2852.30
0.95	2862.10
0.955	2852.30
0.96	1751.20
0.965	1021.20
0.97	498.74
0.975	-153.12
0.98	-258.11
0.985	-96.97
0.99	-348.44
0.995	-485.16
1	-248.34
1.005	-316.70
1.01	-573.05
1.015	-350.88
1.02	-216.60
1.025	-485.16
1.03	-407.03
1.035	-145.80
1.04	-338.67
1.045	-431.45
1.05	-153.12
1.055	-158.01
1.06	-414.36
1.065	-172.66
1.07	-48.14
1.075	-304.49
1.08	-216.60
1.085	42.19
1.09	-155.57
1.095	-241.02
1.1	44.63
1.105	32.43
1.11	-211.72
1.115	20.22
1.12	161.82
1.125	-96.97
1.13	-4.20
1.135	261.92
1.14	71.49
1.145	-28.61
1.15	247.27
1.155	230.18
1.16	-26.17
1.165	210.65
1.17	318.07
1.175	54.40
1.18	117.88
1.185	362.02
1.19	147.17
1.195	22.66
1.2	283.89
1.205	235.07
1.21	-67.67
1.215	134.97
1.22	225.30
1.225	-92.09
1.23	-57.91
1.235	149.61
1.24	-89.65
1.245	-250.78
1.25	-6.64
1.255	-84.76
1.26	-375.30
1.265	-158.01
1.27	-62.79
1.275	-350.88
1.28	-299.61
1.285	-43.26
1.29	-250.78
1.295	-375.30
1.3	-94.53
1.305	-133.59
1.31	-382.62
1.315	-155.57
1.32	-31.05
1.325	-299.61
1.33	-231.25
1.335	32.43
1.34	-189.75
1.345	-294.73
1.35	-6.64
1.355	-40.82
1.36	-309.38
1.365	-99.41
1.37	39.75
1.375	-241.02
1.38	-179.98
1.385	64.16
1.39	-145.80
1.395	-270.31
1.4	-4.20
1.405	-48.14
1.41	-316.70
1.415	-84.76
1.42	20.22
1.425	-250.78
1.43	-199.51
1.435	51.96
1.44	-165.33
1.445	-280.08
1.45	-13.96
1.455	-45.70
1.46	-309.38
1.465	-89.65
1.47	22.66
1.475	-248.34
1.48	-197.07
1.485	61.72
1.49	-140.92
1.495	-267.87
1.5	-9.08
1.505	-28.61
1.51	-299.61
1.515	-79.88
1.52	51.96
1.525	-214.16
1.53	-167.77
1.535	105.67
1.54	-114.06
1.545	-221.48
1.55	42.19
1.555	17.78
1.56	-248.34
1.565	-31.05
1.57	88.58
1.575	-187.30
1.58	-145.80
1.585	112.99
1.59	-48.14
1.595	-160.45
1.6	137.41
1.605	132.52
1.61	-121.39
1.615	108.11
1.62	227.74
1.625	-67.67
1.63	-75.00
1.635	164.26
1.64	-70.12
1.645	-199.51
1.65	54.40
1.655	27.54
1.66	-245.90
1.665	-26.17
1.67	88.58
1.675	-177.54
1.68	-153.12
1.685	64.16
1.69	-253.22
1.695	-590.14
1.7	-346.00
1.705	-1.75
1.71	537.80
1.715	1870.80
1.72	2845.00
1.725	2854.70
1.73	2859.60
1.735	2654.50
1.74	1453.30
1.745	493.86
1.75	257.04
1.755	-40.82
1.76	-424.12
1.765	-248.34
1.77	-150.68
1.775	-455.86
1.78	-433.89
1.785	-184.86
1.79	-394.83
1.795	-512.02
1.8	-219.04
1.805	-233.69
1.81	-487.60
1.815	-272.76
1.82	-128.71
1.825	-387.50
1.83	-331.35
1.835	-50.58
1.84	-231.25
1.845	-343.56
1.85	-43.26
1.855	-50.58
1.86	-306.94
1.865	-70.12
1.87	66.61
1.875	-182.42
1.88	-133.59
1.885	144.73
1.89	-33.49
1.895	-145.80
1.9	152.06
1.905	156.94
1.91	-106.74
1.915	122.76
1.92	269.25
1.925	12.89
1.93	64.16
1.935	335.16
1.94	154.50
1.945	17.78
1.95	291.22
1.955	281.45
1.96	8.01
1.965	220.42
1.97	347.37
1.975	59.28
1.98	73.93
1.985	313.19
1.99	93.46
1.995	-75.00
2	166.70
2.005	117.88
2.01	-184.86
2.015	-9.08
2.02	98.34
2.025	-214.16
2.03	-204.39
2.035	27.54
2.04	-184.86
2.045	-346.00
2.05	-84.76
2.055	-109.18
2.06	-382.62
2.065	-177.54
2.07	-33.49
2.075	-314.26
2.08	-277.64
2.085	-11.52
2.09	-199.51
2.095	-336.23
2.1	-55.47
2.105	-70.12
2.11	-343.56
2.115	-123.83
2.12	22.66
2.125	-201.95
2.13	-143.36
2.135	120.32
2.14	-70.12
2.145	-216.60
2.15	66.61
2.155	56.84
2.16	-226.37
2.165	-26.17
2.17	103.23
2.175	-187.30
2.18	-160.45
2.185	103.23
2.19	-96.97
2.195	-253.22
2.2	10.45
2.205	-23.73
2.21	-321.58
2.215	-123.83
2.22	-1.75
2.225	-282.52
2.23	-253.22
2.235	12.89
2.24	-184.86
2.245	-326.47
2.25	-50.58
2.255	-70.12
2.26	-336.23
2.265	-133.59
2.27	8.01
2.275	-258.11
2.28	-241.02
2.285	25.10
2.29	-160.45
2.295	-297.17
2.3	-18.85
2.305	-13.96
2.31	-277.64
2.315	-70.12
2.32	81.25
2.325	-182.42
2.33	-158.01
2.335	105.67
2.34	-82.32
2.345	-226.37
2.35	42.19
2.355	27.54
2.36	-245.90
2.365	-26.17
2.37	134.97
2.375	-114.06
2.38	-67.67
2.385	225.30
2.39	51.96
2.395	-106.74
2.4	147.17
2.405	108.11
2.41	-204.39
2.415	-13.96
2.42	117.88
2.425	-175.10
2.43	-150.68
2.435	103.23
2.44	-84.76
2.445	-245.90
2.45	34.87
2.455	12.89
2.46	-277.64
2.465	-114.06
2.47	-131.15
2.475	-507.13
2.48	-355.76
2.485	467.00
2.49	1228.70
2.495	2100.30
2.5	2847.40
2.505	2857.20
2.51	2561.80
2.515	1719.50
2.52	933.32
2.525	64.16
2.53	-243.46
2.535	-114.06
2.54	-338.67
2.545	-494.93
2.55	-211.72
2.555	-231.25
2.56	-509.58
2.565	-299.61
2.57	-136.03
2.575	-397.27
2.58	-365.53
2.585	-72.56
2.59	-248.34
2.595	-385.06
2.6	-96.97
2.605	-82.32
2.61	-346.00
2.615	-140.92
2.62	25.10
2.625	-231.25
2.63	-201.95
2.635	86.14
2.64	-67.67
2.645	-211.72
2.65	86.14
2.655	95.90
2.66	-172.66
2.665	49.52
2.67	213.09
2.675	-40.82
2.68	-9.08
2.685	274.13
2.69	117.88
2.695	-23.73
2.7	254.60
2.705	257.04
2.71	-6.64
2.715	186.24
2.72	340.05
2.725	78.81
2.73	86.14
2.735	347.37
2.74	166.70
2.745	-16.40
2.75	252.16
2.755	235.07
2.76	-53.03
2.765	115.43
2.77	259.48
2.775	-50.58
2.78	-62.79
2.785	181.35
2.79	-31.05
2.795	-219.04
2.8	34.87
2.805	-9.08
2.81	-302.05
2.815	-140.92
2.82	-6.64
2.825	-287.40
2.83	-282.52
2.835	-18.85
2.84	-194.63
2.845	-350.88
2.85	-77.44
2.855	-75.00
2.86	-346.00
2.865	-155.57
2.87	17.78
2.875	-253.22
2.88	-243.46
2.885	27.54
2.89	-133.59
2.895	-292.29
2.9	-6.64
2.905	-1.75
2.91	-277.64
2.915	-77.44
2.92	83.70
2.925	-184.86
2.93	-182.42
2.935	86.14
2.94	-79.88
2.945	-255.66
2.95	15.34
2.955	17.78
2.96	-275.20
2.965	-92.09
2.97	69.05
2.975	-209.28
2.98	-206.84
2.985	66.61
2.99	-101.85
2.995	-280.08
3	10.45
3.005	5.57
3.01	-272.76
3.015	-84.76
3.02	59.28
3.025	-219.04
3.03	-206.84
3.035	59.28
3.04	-109.18
3.045	-270.31
3.05	8.01
3.055	12.89
3.06	-250.78
3.065	-72.56
3.07	95.90
3.075	-167.77
3.08	-165.33
3.085	108.11
3.09	-60.35
3.095	-228.81
3.1	69.05
3.105	98.34
3.11	-158.01
3.115	49.52
3.12	230.18
3.125	-33.49
3.13	-26.17
3.135	225.30
3.14	34.87
3.145	-170.21
3.15	83.70
3.155	69.05
3.16	-214.16
3.165	-33.49
3.17	117.88
3.175	-150.68
3.18	-160.45
3.185	103.23
3.19	-60.35
3.195	-243.46
3.2	-4.20
3.205	-136.03
3.21	-541.31
3.215	-282.52
3.22	364.46
3.225	967.50
3.23	1988.00
3.235	2852.30
3.24	2857.20
3.245	2718.00
3.25	2019.80
3.255	1033.40
3.26	95.90
3.265	-89.65
3.27	-92.09
3.275	-407.03
3.28	-407.03
3.285	-143.36
3.29	-302.05
3.295	-468.07
3.3	-189.75
3.305	-175.10
3.31	-429.01
3.315	-248.34
3.32	-62.79
3.325	-311.82
3.33	-311.82
3.335	-16.40
3.34	-160.45
3.345	-333.79
3.35	-26.17
3.355	-4.20
3.36	-265.43
3.365	-67.67
3.37	117.88
3.375	-138.48
3.38	-116.50
3.385	174.03
3.39	34.87
3.395	-116.50
3.4	166.70
3.405	188.68
3.41	-67.67
3.415	117.88
3.42	291.22
3.425	54.40
3.43	56.84
3.435	347.37
3.44	217.98
3.445	37.31
3.45	330.28
3.455	354.70
3.46	78.81
3.465	247.27
3.47	408.41
3.475	134.97
3.48	122.76
3.485	379.11
3.49	193.56
3.495	-6.64
3.5	244.83
3.505	220.42
3.51	-82.32
3.515	39.75
3.52	186.24
3.525	-104.30
3.53	-150.68
3.535	91.02
3.54	-79.88
3.545	-294.73
3.55	-35.94
3.555	-50.58
3.56	-343.56
3.565	-199.51
3.57	-28.61
3.575	-309.38
3.58	-314.26
3.585	-38.38
3.59	-179.98
3.595	-358.21
3.6	-67.67
3.605	-57.91
3.61	-321.58
3.615	-155.57
3.62	32.43
3.625	-221.48
3.63	-226.37
3.635	56.84
3.64	-84.76
3.645	-280.08
3.65	8.01
3.655	32.43
3.66	-245.90
3.665	-84.76
3.67	100.79
3.675	-172.66
3.68	-184.86
3.685	78.81
3.69	-70.12
3.695	-253.22
3.7	29.98
3.705	39.75
3.71	-243.46
3.715	-94.53
3.72	76.37
3.725	-206.84
3.73	-214.16
3.735	61.72
3.74	-79.88
3.745	-275.20
3.75	-4.20
3.755	10.45
3.76	-258.11
3.765	-106.74
3.77	78.81
3.775	-184.86
3.78	-204.39
3.785	83.70
3.79	-67.67
3.795	-255.66
3.8	34.87
3.805	54.40
3.81	-223.93
3.815	-70.12
3.82	110.55
3.825	-143.36
3.83	-131.15
3.835	164.26
3.84	27.54
3.845	-133.59
3.85	164.26
3.855	188.68
3.86	-101.85
3.865	15.34
3.87	159.38
3.875	-114.06
3.88	-155.57
3.885	108.11
3.89	-38.38
3.895	-241.02
3.9	34.87
3.905	54.40
3.91	-231.25
3.915	-79.88
3.92	103.23
3.925	-201.95
3.93	-328.91
3.935	-187.30
3.94	-275.20
3.945	-21.29
3.95	1052.90
3.955	2024.60
3.96	2591.10
3.965	2854.70
3.97	2857.20
3.975	1761.00
3.98	777.07
3.985	405.97
3.99	-72.56
3.995	-424.12
4	-201.95
4.005	-170.21
4.01	-441.21
4.015	-292.29
4.02	-101.85
4.025	-370.41
4.03	-382.62
4.035	-82.32
4.04	-209.28
4.045	-389.94
4.05	-89.65
4.055	-60.35
4.06	-319.14
4.065	-158.01
4.07	44.63
4.075	-199.51
4.08	-214.16
4.085	81.25
4.09	-43.26
4.095	-219.04
4.1	73.93
4.105	112.99
4.11	-150.68
4.115	8.01
4.12	225.30
4.125	-23.73
4.13	-33.49
4.135	271.69
4.14	154.50
4.145	-43.26
4.15	259.48
4.155	288.78
4.16	20.22
4.165	181.35
4.17	381.55
4.175	130.08
4.18	100.79
4.185	376.67
4.19	247.27
4.195	44.63
4.2	313.19
4.205	322.96
4.21	20.22
4.215	137.41
4.22	305.87
4.225	22.66
4.23	-38.38
4.235	215.53
4.24	54.40
4.245	-172.66
4.25	76.37
4.255	78.81
4.26	-245.90
4.265	-123.83
4.27	42.19
4.275	-253.22
4.28	-304.49
4.285	-40.82
4.29	-184.86
4.295	-394.83
4.3	-126.27
4.305	-99.41
4.31	-375.30
4.315	-228.81
4.32	-23.73
4.325	-270.31
4.33	-297.17
4.335	-13.96
4.34	-133.59
4.345	-338.67
4.35	-45.70
4.355	-11.52
4.36	-284.96
4.365	-133.59
4.37	76.37
4.375	-182.42
4.38	-206.84
4.385	69.05
4.39	-62.79
4.395	-258.11
4.4	25.10
4.405	37.31
4.41	-243.46
4.415	-118.94
4.42	78.81
4.425	-179.98
4.43	-214.16
4.435	49.52
4.44	-77.44
4.445	-284.96
4.45	-9.08
4.455	17.78
4.46	-265.43
4.465	-133.59
4.47	69.05
4.475	-201.95
4.48	-238.57
4.485	42.19
4.49	-77.44
4.495	-280.08
4.5	-1.75
4.505	29.98
4.51	-233.69
4.515	-101.85
4.52	95.90
4.525	-165.33
4.53	-184.86
4.535	115.43
4.54	15.34
4.545	-177.54
4.55	110.55
4.555	161.82
4.56	-111.62
4.565	20.22
4.57	193.56
4.575	-99.41
4.58	-160.45
4.585	105.67
4.59	-28.61
4.595	-260.55
4.6	8.01
4.605	32.43
4.61	-248.34
4.615	-114.06
4.62	98.34
4.625	-165.33
4.63	-211.72
4.635	10.45
4.64	-272.76
4.645	-526.67
4.65	-16.40
4.655	633.02
4.66	1267.80
4.665	2224.80
4.67	2847.40
4.675	2779.00
4.68	2144.30
4.685	1446.00
4.69	530.48
4.695	-136.03
4.7	-104.30
4.705	-155.57
4.71	-453.42
4.715	-311.82
4.72	-99.41
4.725	-355.76
4.73	-397.27
4.735	-104.30
4.74	-216.60
4.745	-407.03
4.75	-121.39
4.755	-77.44
4.76	-338.67
4.765	-209.28
4.77	10.45
4.775	-228.81
4.78	-255.66
4.785	44.63
4.79	-60.35
4.795	-258.11
4.8	34.87
4.805	78.81
4.81	-184.86
4.815	-28.61
4.82	200.89
4.825	-31.05
4.83	-67.67
4.835	237.51
4.84	147.17
4.845	-62.79
4.85	213.09
4.855	259.48
4.86	-6.64
4.865	139.85
4.87	366.90
4.875	125.20
4.88	88.58
4.885	379.11
4.89	269.25
4.895	54.40
4.9	313.19
4.905	352.25
4.91	56.84
4.915	159.38
4.92	349.81
4.925	73.93
4.93	-1.75
4.935	261.92
4.94	115.43
4.945	-136.03
4.95	93.46
4.955	110.55
4.96	-204.39
4.965	-121.39
4.97	54.40
4.975	-236.13
4.98	-302.05
4.985	-28.61
4.99	-170.21
4.995	-392.39
5	-145.80
5.005	-106.74
5.01	-380.18
5.015	-262.99
5.02	-43.26
5.025	-287.40
5.03	-336.23
5.035	-31.05
5.04	-140.92
5.045	-350.88
5.05	-84.76
5.055	-31.05
5.06	-304.49
5.065	-172.66
5.07	49.52
5.075	-197.07
5.08	-243.46
5.085	56.84
5.09	-50.58
5.095	-255.66
5.1	-1.75
5.105	44.63
5.11	-233.69
5.115	-118.94
5.12	93.46
5.125	-165.33
5.13	-223.93
5.135	51.96
5.14	-55.47
5.145	-280.08
5.15	-21.29
5.155	22.66
5.16	-267.87
5.165	-160.45
5.17	49.52
5.175	-199.51
5.18	-262.99
5.185	22.66
5.19	-92.09
5.195	-299.61
5.2	-28.61
5.205	20.22
5.21	-248.34
5.215	-128.71
5.22	81.25
5.225	-160.45
5.23	-211.72
5.235	66.61
5.24	-43.26
5.245	-262.99
5.25	8.01
5.255	76.37
5.26	-179.98
5.265	-50.58
5.27	198.44
5.275	-35.94
5.28	-84.76
5.285	193.56
5.29	44.63
5.295	-206.84
5.3	32.43
5.305	61.72
5.31	-223.93
5.315	-121.39
5.32	95.90
5.325	-165.33
5.33	-219.04
5.335	56.84
5.34	-50.58
5.345	-277.64
5.35	-45.70
5.355	-84.76
5.36	-519.34
5.365	-424.12
5.37	103.23
5.375	523.16
5.38	1426.50
5.385	2547.10
5.39	2847.40
5.395	2754.60
5.4	2276.10
5.405	1399.60
5.41	364.46
5.415	42.19
5.42	25.10
5.425	-328.91
5.43	-414.36
5.435	-140.92
5.44	-255.66
5.445	-490.04
5.45	-233.69
5.455	-182.42
5.46	-448.54
5.465	-336.23
5.47	-87.21
5.475	-316.70
5.48	-363.09
5.485	-57.91
5.49	-148.24
5.495	-363.09
5.5	-89.65
5.505	-13.96
5.51	-280.08
5.515	-158.01
5.52	88.58
5.525	-148.24
5.53	-184.86
5.535	125.20
5.54	32.43
5.545	-172.66
5.55	103.23
5.555	181.35
5.56	-79.88
5.565	44.63
5.57	271.69
5.575	49.52
5.58	-9.08
5.585	303.43
5.59	232.62
5.595	20.22
5.6	276.57
5.605	359.58
5.61	81.25
5.615	183.79
5.62	398.64
5.625	142.29
5.63	64.16
5.635	340.05
5.64	227.74
5.645	-18.85
5.65	215.53
5.655	244.83
5.66	-62.79
5.665	-4.20
5.67	188.68
5.675	-84.76
5.68	-184.86
5.685	73.93
5.69	-45.70
5.695	-304.49
5.7	-87.21
5.705	-43.26
5.71	-346.00
5.715	-272.76
5.72	-38.38
5.725	-284.96
5.73	-353.32
5.735	-62.79
5.74	-160.45
5.745	-392.39
5.75	-136.03
5.755	-72.56
5.76	-333.79
5.765	-231.25
5.77	20.22
5.775	-214.16
5.78	-272.76
5.785	27.54
5.79	-55.47
5.795	-272.76
5.8	-33.49
5.805	44.63
5.81	-231.25
5.815	-138.48
5.82	105.67
5.825	-133.59
5.83	-211.72
5.835	69.05
5.84	-26.17
5.845	-270.31
5.85	-21.29
5.855	49.52
5.86	-231.25
5.865	-136.03
5.87	91.02
5.875	-162.89
5.88	-231.25
5.885	49.52
5.89	-43.26
5.895	-275.20
5.9	-35.94
5.905	32.43
5.91	-241.02
5.915	-148.24
5.92	83.70
5.925	-158.01
5.93	-228.81
5.935	59.28
5.94	-23.73
5.945	-258.11
5.95	-13.96
5.955	64.16
5.96	-204.39
5.965	-118.94
5.97	117.88
5.975	-123.83
5.98	-175.10
5.985	130.08
5.99	64.16
5.995	-145.80
6	112.99
6.005	198.44
6.01	-67.67
6.015	-1.75
6.02	205.77
6.025	-65.23
6.03	-155.57
6.035	103.23
6.04	10.45
6.045	-228.81
6.05	5.57
6.055	76.37
6.06	-197.07
6.065	-114.06
6.07	125.20
6.075	-126.27
6.08	-236.13
6.085	-50.58
6.09	-309.38
6.095	-541.31
6.1	47.07
6.105	857.63
6.11	1621.80
6.115	2598.40
6.12	2849.90
6.125	2862.10
6.13	2107.70
6.135	1387.40
6.14	547.57
6.145	-126.27
6.15	-116.50
6.155	-133.59
6.16	-429.01
6.165	-358.21
6.17	-128.71
6.175	-370.41
6.18	-448.54
6.185	-160.45
6.19	-236.13
6.195	-463.19
6.2	-209.28
6.205	-114.06
6.21	-375.30
6.215	-275.20
6.22	-16.40
6.225	-236.13
6.23	-294.73
6.235	-1.75
6.24	-65.23
6.245	-280.08
6.25	-23.73
6.255	66.61
6.26	-179.98
6.265	-84.76
6.27	171.59
6.275	-43.26
6.28	-116.50
6.285	181.35
6.29	117.88
6.295	-111.62
6.3	149.61
6.305	247.27
6.31	-9.08
6.315	93.46
6.32	352.25
6.325	132.52
6.33	66.61
6.335	364.46
6.34	279.01
6.345	39.75
6.35	279.01
6.355	344.93
6.36	66.61
6.365	132.52
6.37	352.25
6.375	100.79
6.38	-1.75
6.385	239.95
6.39	127.64
6.395	-140.92
6.4	51.96
6.405	108.11
6.41	-194.63
6.415	-155.57
6.42	69.05
6.425	-201.95
6.43	-306.94
6.435	-48.14
6.44	-148.24
6.445	-387.50
6.45	-162.89
6.455	-82.32
6.46	-353.32
6.465	-282.52
6.47	-33.49
6.475	-272.76
6.48	-341.12
6.485	-67.67
6.49	-140.92
6.495	-367.97
6.5	-128.71
6.505	-33.49
6.51	-297.17
6.515	-219.04
6.52	47.07
6.525	-175.10
6.53	-255.66
6.535	29.98
6.54	-35.94
6.545	-277.64
6.55	-31.05
6.555	44.63
6.56	-231.25
6.565	-155.57
6.57	86.14
6.575	-150.68
6.58	-238.57
6.585	34.87
6.59	-40.82
6.595	-287.40
6.6	-62.79
6.605	25.10
6.61	-248.34
6.615	-184.86
6.62	66.61
6.625	-165.33
6.63	-258.11
6.635	27.54
6.64	-45.70
6.645	-289.85
6.65	-53.03
6.655	20.22
6.66	-248.34
6.665	-170.21
6.67	83.70
6.675	-160.45
6.68	-238.57
6.685	39.75
6.69	-43.26
6.695	-267.87
6.7	-43.26
6.705	49.52
6.71	-214.16
6.715	-155.57
6.72	98.34
6.725	-128.71
6.73	-221.48
6.735	61.72
6.74	-4.20
6.745	-248.34
6.75	-21.29
6.755	78.81
6.76	-197.07
6.765	-138.48
6.77	112.99
6.775	-114.06
6.78	-175.10
6.785	122.76
6.79	76.37
6.795	-140.92
6.8	108.11
6.805	203.33
6.81	-67.67
6.815	-31.05
6.82	188.68
6.825	-70.12
6.83	-177.54
6.835	86.14
6.84	15.34
6.845	-243.46
6.85	-23.73
6.855	69.05
6.86	-204.39
6.865	-145.80
6.87	98.34
6.875	-179.98
6.88	-402.15
6.885	-282.52
6.89	-328.91
6.895	-150.68
6.9	906.46
6.905	2071.00
6.91	2776.60
6.915	2854.70
6.92	2859.60
6.925	2195.50
6.93	1099.30
6.935	628.14
6.94	110.55
6.945	-363.09
6.95	-245.90
6.955	-175.10
6.96	-468.07
6.965	-426.57
6.97	-177.54
6.975	-407.03
6.98	-504.69
6.985	-223.93
6.99	-270.31
6.995	-502.25
7	-258.11
7.005	-148.24
7.01	-399.71
7.015	-324.03
7.02	-50.58
7.025	-258.11
7.03	-336.23
7.035	-43.26
7.04	-82.32
7.045	-316.70
7.05	-79.88
7.055	34.87
7.06	-223.93
7.065	-145.80
7.07	127.64
7.075	-77.44
7.08	-162.89
7.085	127.64
7.09	86.14
7.095	-143.36
7.1	100.79
7.105	217.98
7.11	-38.38
7.115	39.75
7.12	310.75
7.125	91.02
7.13	8.01
7.135	279.01
7.14	220.42
7.145	-21.29
7.15	191.12
7.155	288.78
7.16	-1.75
7.165	37.31
7.17	286.34
7.175	37.31
7.18	-82.32
7.185	171.59
7.19	76.37
7.195	-194.63
7.2	-4.20
7.205	78.81
7.21	-219.04
7.215	-199.51
7.22	42.19
7.225	-214.16
7.23	-331.35
7.235	-75.00
7.24	-150.68
7.245	-407.03
7.25	-199.51
7.255	-96.97
7.26	-370.41
7.265	-311.82
7.27	-45.70
7.275	-260.55
7.28	-363.09
7.285	-84.76
7.29	-118.94
7.295	-363.09
7.3	-136.03
7.305	-21.29
7.31	-282.52
7.315	-223.93
7.32	49.52
7.325	-158.01
7.33	-260.55
7.335	12.89
7.34	-26.17
7.345	-282.52
7.35	-62.79
7.355	47.07
7.36	-236.13
7.365	-184.86
7.37	73.93
7.375	-148.24
7.38	-258.11
7.385	10.45
7.39	-43.26
7.395	-297.17
7.4	-82.32
7.405	32.43
7.41	-250.78
7.415	-211.72
7.42	56.84
7.425	-162.89
7.43	-275.20
7.435	-1.75
7.44	-48.14
7.445	-309.38
7.45	-99.41
7.455	27.54
7.46	-250.78
7.465	-206.84
7.47	61.72
7.475	-162.89
7.48	-262.99
7.485	15.34
7.49	-43.26
7.495	-284.96
7.5	-70.12
7.505	42.19
7.51	-223.93
7.515	-179.98
7.52	91.02
7.525	-126.27
7.53	-241.02
7.535	32.43
7.54	-9.08
7.545	-272.76
7.55	-55.47
7.555	59.28
7.56	-216.60
7.565	-160.45
7.57	108.11
7.575	-111.62
7.58	-223.93
7.585	59.28
7.59	-1.75
7.595	-241.02
7.6	-28.61
7.605	93.46
7.61	-175.10
7.615	-126.27
7.62	137.41
7.625	-67.67
7.63	-187.30
7.635	66.61
7.64	29.98
7.645	-204.39
7.65	22.66
7.655	176.47
7.66	-79.88
7.665	-16.40
7.67	264.36
7.675	49.52
7.68	-89.65
7.685	147.17
7.69	73.93
7.695	-194.63
7.7	-4.20
7.705	110.55
7.71	-175.10
7.715	-128.71
7.72	130.08
7.725	-89.65
7.73	-209.28
7.735	42.19
7.74	-31.05
7.745	-414.36
7.75	-389.94
7.755	-255.66
7.76	-145.80
7.765	701.38
7.77	2053.90
7.775	2842.50
7.78	2857.20
7.785	2852.30
7.79	2466.50
7.795	1231.20
7.8	642.79
7.805	276.57
7.81	-245.90
7.815	-324.03
7.82	-101.85
7.825	-348.44
7.83	-492.48
7.835	-245.90
7.84	-294.73
7.845	-541.31
7.85	-324.03
7.855	-184.86
7.86	-431.45
7.865	-389.94
7.87	-96.97
7.875	-292.29
7.88	-402.15
7.885	-106.74
7.89	-136.03
7.895	-370.41
7.9	-148.24
7.905	-1.75
7.91	-265.43
7.915	-204.39
7.92	76.37
7.925	-121.39
7.93	-219.04
7.935	64.16
7.94	39.75
7.945	-201.95
7.95	17.78
7.955	164.26
7.96	-92.09
7.965	-33.49
7.97	247.27
7.975	61.72
7.98	-53.03
7.985	220.42
7.99	203.33
7.995	-53.03
8	154.50
8.005	293.66
8.01	5.57
8.015	47.07
8.02	300.98
8.025	71.49
8.03	-60.35
8.035	196.00
8.04	142.29
8.045	-121.39
8.05	51.96
8.055	166.70
8.06	-131.15
8.065	-121.39
8.07	122.76
8.075	-101.85
8.08	-245.90
8.085	-1.75
8.09	-53.03
8.095	-328.91
8.1	-148.24
8.105	-18.85
8.11	-306.94
8.115	-289.85
8.12	-11.52
8.125	-219.04
8.13	-348.44
8.135	-65.23
8.14	-109.18
8.145	-358.21
8.15	-155.57
8.155	-13.96
8.16	-270.31
8.165	-231.25
8.17	49.52
8.175	-145.80
8.18	-265.43
8.185	8.01
8.19	-13.96
8.195	-267.87
8.2	-70.12
8.205	76.37
8.21	-197.07
8.215	-170.21
8.22	95.90
8.225	-109.18
8.23	-243.46
8.235	22.66
8.24	-4.20
8.245	-277.64
8.25	-79.88
8.255	56.84
8.26	-219.04
8.265	-184.86
8.27	78.81
8.275	-131.15
8.28	-262.99
8.285	-1.75
8.29	-26.17
8.295	-284.96
8.3	-96.97
8.305	54.40
8.31	-226.37
8.315	-194.63
8.32	71.49
8.325	-131.15
8.33	-262.99
8.335	12.89
8.34	-13.96
8.345	-267.87
8.35	-75.00
8.355	76.37
8.36	-204.39
8.365	-170.21
8.37	98.34
8.375	-94.53
8.38	-226.37
8.385	44.63
8.39	12.89
8.395	-245.90
8.4	-55.47
8.405	93.46
8.41	-182.42
8.415	-150.68
8.42	108.11
8.425	-87.21
8.43	-223.93
8.435	44.63
8.44	25.10
8.445	-238.57
8.45	-48.14
8.455	108.11
8.46	-165.33
8.465	-136.03
8.47	137.41
8.475	-65.23
8.48	-194.63
8.485	73.93
8.49	59.28
8.495	-206.84
8.5	-9.08
8.505	125.20
8.51	-158.01
8.515	-121.39
8.52	164.26
8.525	-4.20
8.53	-121.39
8.535	166.70
8.54	171.59
8.545	-79.88
8.55	103.23
8.555	237.51
8.56	-82.32
8.565	-84.76
8.57	171.59
8.575	-33.49
8.58	-187.30
8.585	78.81
8.59	54.40
8.595	-206.84
8.6	-23.73
8.605	125.20
8.61	-170.21
8.615	-182.42
8.62	-65.23
8.625	-416.80
8.63	-492.48
8.635	230.18
8.64	1084.70
8.645	1939.20
8.65	2845.00
8.655	2857.20
8.66	2852.30
8.665	2107.70
8.67	1365.50
8.675	454.80
8.68	-116.50
8.685	-60.35
8.69	-165.33
8.695	-453.42
8.7	-287.40
8.705	-140.92
8.71	-443.66
8.715	-407.03
8.72	-143.36
8.725	-324.03
8.73	-453.42
8.735	-167.77
8.74	-179.98
8.745	-414.36
8.75	-211.72
8.755	-35.94
8.76	-299.61
8.765	-260.55
8.77	8.01
8.775	-153.12
8.78	-287.40
8.785	-1.75
8.79	5.57
8.795	-236.13
8.8	-33.49
8.805	144.73
8.81	-128.71
8.815	-87.21
8.82	188.68
8.825	17.78
8.83	-114.06
8.835	169.15
8.84	171.59
8.845	-70.12
8.85	132.52
8.855	300.98
8.86	32.43
8.865	56.84
8.87	325.40
8.875	142.29
8.88	-11.52
8.885	254.60
8.89	235.07
8.895	-40.82
8.9	122.76
8.905	271.69
8.91	-18.85
8.915	-18.85
8.92	230.18
8.925	20.22
8.93	-150.68
8.935	83.70
8.94	59.28
8.945	-231.25
8.95	-70.12
8.955	71.49
8.96	-231.25
8.965	-238.57
8.97	12.89
8.975	-192.19
8.98	-353.32
8.985	-104.30
8.99	-114.06
8.995	-385.06
9	-204.39
9.005	-35.94
9.01	-309.38
9.015	-287.40
9.02	-9.08
9.025	-179.98
9.03	-326.47
9.035	-50.58
9.04	-50.58
9.045	-319.14
9.05	-128.71
9.055	47.07
9.06	-223.93
9.065	-197.07
9.07	76.37
9.075	-104.30
9.08	-255.66
9.085	12.89
9.09	15.34
9.095	-253.22
9.1	-79.88
9.105	78.81
9.11	-199.51
9.115	-184.86
9.12	73.93
9.125	-106.74
9.13	-262.99
9.135	5.57
9.14	-1.75
9.145	-280.08
9.15	-106.74
9.155	61.72
9.16	-223.93
9.165	-219.04
9.17	47.07
9.175	-138.48
9.18	-287.40
9.185	-11.52
9.19	-21.29
9.195	-277.64
9.2	-109.18
9.205	59.28
9.21	-219.04
9.215	-204.39
9.22	64.16
9.225	-106.74
9.23	-260.55
9.235	-1.75
9.24	8.01
9.245	-262.99
9.25	-92.09
9.255	76.37
9.26	-192.19
9.265	-182.42
9.27	93.46
9.275	-79.88
9.28	-243.46
9.285	34.87
9.29	29.98
9.295	-238.57
9.3	-53.03
9.305	115.43
9.31	-160.45
9.315	-148.24
9.32	115.43
9.325	-55.47
9.33	-226.37
9.335	29.98
9.34	56.84
9.345	-187.30
9.35	-1.75
9.355	203.33
9.36	-48.14
9.365	-31.05
9.37	259.48
9.375	73.93
9.38	-116.50
9.385	110.55
9.39	91.02
9.395	-206.84
9.4	-50.58
9.405	125.20
9.41	-162.89
9.415	-153.12
9.42	108.11
9.425	-79.88
9.43	-241.02
9.435	10.45
9.44	-31.05
9.445	-438.77
9.45	-404.59
9.455	-128.71
9.46	105.67
9.465	1001.70
9.47	2271.20
9.475	2854.70
9.48	2854.70
9.485	2862.10
9.49	1997.80
9.495	745.33
9.5	254.60
9.505	73.93
9.51	-377.74
9.515	-421.68
9.52	-167.77
9.525	-336.23
9.53	-499.81
9.535	-231.25
9.54	-231.25
9.545	-490.04
9.55	-306.94
9.555	-106.74
9.56	-375.30
9.565	-353.32
9.57	-75.00
9.575	-216.60
9.58	-365.53
9.585	-92.09
9.59	-70.12
9.595	-324.03
9.6	-148.24
9.605	56.84
9.61	-206.84
9.615	-184.86
9.62	103.23
9.625	-53.03
9.63	-201.95
9.635	88.58
9.64	108.11
9.645	-133.59
9.65	44.63
9.655	242.39
9.66	-6.64
9.665	12.89
9.67	293.66
9.675	139.85
9.68	-18.85
9.685	239.95
9.69	261.92
9.695	-6.64
9.7	164.26
9.705	352.25
9.71	71.49
9.715	64.16
9.72	310.75
9.725	125.20
9.73	-62.79
9.735	181.35
9.74	176.47
9.745	-126.27
9.75	22.66
9.755	174.03
9.76	-138.48
9.765	-172.66
9.77	64.16
9.775	-131.15
9.78	-319.14
9.785	-77.44
9.79	-82.32
9.795	-377.74
9.8	-241.02
9.805	-70.12
9.81	-358.21
9.815	-372.85
9.82	-92.09
9.825	-255.66
9.83	-419.24
9.835	-136.03
9.84	-114.06
9.845	-375.30
9.85	-211.72
9.855	-16.40
9.86	-287.40
9.865	-277.64
9.87	-1.75
9.875	-150.68
9.88	-302.05
9.885	-33.49
9.89	-6.64
9.895	-282.52
9.9	-123.83
9.905	66.61
9.91	-209.28
9.915	-211.72
9.92	51.96
9.925	-99.41
9.93	-284.96
9.935	-16.40
9.94	-1.75
9.945	-284.96
9.95	-128.71
9.955	59.28
9.96	-226.37
9.965	-236.13
9.97	29.98
9.975	-131.15
9.98	-294.73
9.985	-38.38
9.99	-23.73
9.995	-294.73
10	-136.03
10.005	51.96
10.01	-223.93
10.015	-236.13
10.02	27.54
10.025	-126.27
10.03	-297.17
10.035	-23.73
10.04	10.45
10.045	-267.87
10.05	-111.62
10.055	81.25
10.06	-184.86
10.065	-189.75
10.07	81.25
10.075	-75.00
10.08	-253.22
10.085	12.89
10.09	32.43
10.095	-236.13
10.1	-70.12
10.105	139.85
10.11	-116.50
10.115	-99.41
10.12	188.68
10.125	66.61
10.13	-111.62
10.135	127.64
10.14	120.32
10.145	-194.63
10.15	-57.91
10.155	125.20
10.16	-155.57
10.165	-177.54
10.17	95.90
10.175	-55.47
10.18	-243.46
10.185	22.66
10.19	49.52
10.195	-253.22
10.2	-158.01
10.205	-131.15
10.21	-475.39
10.215	-260.55
10.22	623.25
10.225	1428.90
10.23	2198.00
10.235	2852.30
10.24	2852.30
10.245	2295.60
10.25	1426.50
10.255	757.53
10.26	-18.85
10.265	-302.05
10.27	-126.27
10.275	-297.17
10.28	-460.75
10.285	-194.63
10.29	-155.57
10.295	-438.77
10.3	-277.64
10.305	-75.00
10.31	-338.67
10.315	-328.91
10.32	-40.82
10.325	-182.42
10.33	-348.44
10.335	-75.00
10.34	-23.73
10.345	-280.08
10.35	-109.18
10.355	95.90
10.36	-153.12
10.365	-153.12
10.37	137.41
10.375	12.89
10.38	-165.33
10.385	110.55
10.39	166.70
10.395	-99.41
10.4	76.37
10.405	291.22
10.41	32.43
10.415	34.87
10.42	318.07
10.425	196.00
10.43	32.43
10.435	318.07
10.44	362.02
10.445	95.90
10.45	244.83
10.455	432.82
10.46	171.59
10.465	142.29
10.47	403.52
10.475	254.60
10.48	47.07
10.485	286.34
10.49	310.75
10.495	-1.75
10.5	120.32
10.505	286.34
10.51	-33.49
10.515	-84.76
10.52	149.61
10.525	-23.73
10.53	-253.22
10.535	-18.85
10.54	-9.08
10.545	-321.58
10.55	-201.95
10.555	-23.73
10.56	-299.61
10.565	-331.35
10.57	-62.79
10.575	-206.84
10.58	-397.27
10.585	-136.03
10.59	-75.00
10.595	-355.76
10.6	-209.28
10.605	-1.75
10.61	-267.87
10.615	-287.40
10.62	-9.08
10.625	-131.15
10.63	-316.70
10.635	-33.49
10.64	15.34
10.645	-255.66
10.65	-111.62
10.655	103.23
10.66	-160.45
10.665	-182.42
10.67	93.46
10.675	-43.26
10.68	-241.02
10.685	25.10
10.69	64.16
10.695	-221.48
10.7	-89.65
10.705	105.67
10.71	-175.10
10.715	-209.28
10.72	61.72
10.725	-75.00
10.73	-277.64
10.735	-21.29
10.74	25.10
10.745	-262.99
10.75	-123.83
10.755	86.14
10.76	-179.98
10.765	-197.07
10.77	71.49
10.775	-67.67
10.78	-260.55
10.785	-1.75
10.79	42.19
10.795	-236.13
10.8	-87.21
10.805	105.67
10.81	-150.68
10.815	-167.77
10.82	95.90
10.825	-33.49
10.83	-228.81
10.835	42.19
10.84	122.76
10.845	-140.92
10.85	25.10
10.855	252.16
10.86	-1.75
10.865	-35.94
10.87	215.53
10.875	49.52
10.88	-189.75
10.885	56.84
10.89	91.02
10.895	-197.07
10.9	-67.67
10.905	130.08
10.91	-143.36
10.915	-162.89
10.92	91.02
10.925	-33.49
10.93	-253.22
10.935	-87.21
10.94	-201.95
10.945	-514.46
10.95	-87.21
10.955	808.80
10.96	1570.50
10.965	2483.60
10.97	2845.00
10.975	2854.70
10.98	2251.70
10.985	1490.00
10.99	713.59
10.995	-57.91
11	-184.86
11.005	-79.88
11.01	-375.30
11.015	-402.15
11.02	-138.48
11.025	-267.87
11.03	-463.19
11.035	-201.95
11.04	-145.80
11.045	-402.15
11.05	-265.43
11.055	-40.82
11.06	-284.96
11.065	-306.94
11.07	-13.96
11.075	-114.06
11.08	-306.94
11.085	-23.73
11.09	34.87
11.095	-238.57
11.1	-87.21
11.105	139.85
11.11	-106.74
11.115	-114.06
11.12	166.70
11.125	66.61
11.13	-121.39
11.135	149.61
11.14	222.86
11.145	-43.26
11.15	105.67
11.155	332.72
11.16	98.34
11.165	83.70
11.17	369.34
11.175	274.13
11.18	78.81
11.185	344.93
11.19	413.29
11.195	122.76
11.2	249.71
11.205	452.35
11.21	166.70
11.215	125.20
11.22	374.23
11.225	227.74
11.23	-1.75
11.235	215.53
11.24	230.18
11.245	-84.76
11.25	-4.20
11.255	166.70
11.26	-126.27
11.265	-204.39
11.27	29.98
11.275	-116.50
11.28	-350.88
11.285	-126.27
11.29	-75.00
11.295	-380.18
11.3	-270.31
11.305	-55.47
11.31	-321.58
11.315	-365.53
11.32	-84.76
11.325	-197.07
11.33	-404.59
11.335	-136.03
11.34	-84.76
11.345	-353.32
11.35	-211.72
11.355	-1.75
11.36	-238.57
11.365	-267.87
11.37	10.45
11.375	-89.65
11.38	-297.17
11.385	-35.94
11.39	39.75
11.395	-241.02
11.4	-114.06
11.405	103.23
11.41	-158.01
11.415	-197.07
11.42	73.93
11.425	-40.82
11.43	-262.99
11.435	-4.20
11.44	49.52
11.445	-238.57
11.45	-116.50
11.455	98.34
11.46	-179.98
11.465	-204.39
11.47	59.28
11.475	-50.58
11.48	-267.87
11.485	-13.96
11.49	39.75
11.495	-245.90
11.5	-131.15
11.505	83.70
11.51	-177.54
11.515	-216.60
11.52	69.05
11.525	-33.49
11.53	-255.66
11.535	8.01
11.54	71.49
11.545	-214.16
11.55	-99.41
11.555	110.55
11.56	-145.80
11.565	-155.57
11.57	142.29
11.575	56.84
11.58	-128.71
11.585	139.85
11.59	191.12
11.595	-94.53
11.6	-11.52
11.605	166.70
11.61	-116.50
11.615	-177.54
11.62	88.58
11.625	-23.73
11.63	-248.34
11.635	8.01
11.64	66.61
11.645	-221.48
11.65	-109.18
11.655	100.79
11.66	-206.84
11.665	-360.65
11.67	-270.31
11.675	-358.21
11.68	-204.39
11.685	842.98
11.69	1951.40
11.695	2666.70
11.7	2849.90
11.705	2857.20
11.71	2198.00
11.715	1148.20
11.72	633.02
11.725	81.25
11.73	-372.85
11.735	-209.28
11.74	-172.66
11.745	-470.51
11.75	-367.97
11.755	-153.12
11.76	-421.68
11.765	-455.86
11.77	-179.98
11.775	-260.55
11.78	-472.95
11.785	-189.75
11.79	-121.39
11.795	-385.06
11.8	-255.66
11.805	-28.61
11.81	-270.31
11.815	-292.29
11.82	-9.08
11.825	-87.21
11.83	-289.85
11.835	-18.85
11.84	64.16
11.845	-201.95
11.85	-70.12
11.855	169.15
11.86	-72.56
11.865	-101.85
11.87	191.12
11.875	120.32
11.88	-92.09
11.885	191.12
11.89	274.13
11.895	15.34
11.9	149.61
11.905	383.99
11.91	144.73
11.915	120.32
11.92	393.76
11.925	300.98
11.93	73.93
11.935	320.52
11.94	366.90
11.945	73.93
11.95	156.94
11.955	349.81
11.96	64.16
11.965	-23.73
11.97	210.65
11.975	78.81
11.98	-187.30
11.985	32.43
11.99	54.40
11.995	-272.76
12	-197.07
12.005	-4.20
12.01	-280.08
12.015	-350.88
12.02	-96.97
12.025	-206.84
12.03	-431.45
12.035	-179.98
12.04	-133.59
12.045	-407.03
12.05	-309.38
12.055	-89.65
12.06	-328.91
12.065	-380.18
12.07	-101.85
12.075	-177.54
12.08	-397.27
12.085	-126.27
12.09	-50.58
12.095	-328.91
12.1	-211.72
12.105	22.66
12.11	-221.48
12.115	-262.99
12.12	17.78
12.125	-53.03
12.13	-287.40
12.135	-33.49
12.14	39.75
12.145	-243.46
12.15	-136.03
12.155	86.14
12.16	-165.33
12.165	-214.16
12.17	51.96
12.175	-38.38
12.18	-280.08
12.185	-33.49
12.19	32.43
12.195	-260.55
12.2	-162.89
12.205	69.05
12.21	-184.86
12.215	-241.02
12.22	32.43
12.225	-62.79
12.23	-294.73
12.235	-38.38
12.24	22.66
12.245	-253.22
12.25	-148.24
12.255	81.25
12.26	-162.89
12.265	-226.37
12.27	44.63
12.275	-33.49
12.28	-267.87
12.285	-18.85
12.29	49.52
12.295	-223.93
12.3	-128.71
12.305	88.58
12.31	-160.45
12.315	-211.72
12.32	93.46
12.325	47.07
12.33	-179.98
12.335	110.55
12.34	188.68
12.345	-92.09
12.35	8.01
12.355	193.56
12.36	-92.09
12.365	-167.77
12.37	73.93
12.375	-11.52
12.38	-255.66
12.385	-13.96
12.39	56.84
12.395	-228.81
12.4	-133.59
12.405	91.02
12.41	-170.21
12.415	-280.08
12.42	-172.66
12.425	-392.39
12.43	-548.64
12.435	193.56
12.44	1182.30
12.445	2046.60
12.45	2852.30
12.455	2852.30
12.46	2854.70
12.465	2012.40
12.47	1253.10
12.475	462.12
12.48	-179.98
12.485	-133.59
12.49	-158.01
12.495	-455.86
12.5	-389.94
12.505	-182.42
12.51	-426.57
12.515	-499.81
12.52	-223.93
12.525	-292.29
12.53	-519.34
12.535	-255.66
12.54	-162.89
12.545	-433.89
12.55	-321.58
12.555	-70.12
12.56	-299.61
12.565	-348.44
12.57	-50.58
12.575	-114.06
12.58	-333.79
12.585	-60.35
12.59	25.10
12.595	-236.13
12.6	-116.50
12.605	127.64
12.61	-94.53
12.615	-140.92
12.62	156.94
12.625	103.23
12.63	-111.62
12.635	147.17
12.64	249.71
12.645	-18.85
12.65	95.90
12.655	349.81
12.66	127.64
12.665	76.37
12.67	364.46
12.675	298.54
12.68	59.28
12.685	313.19
12.69	374.23
12.695	73.93
12.7	166.70
12.705	374.23
12.71	108.11
12.715	8.01
12.72	242.39
12.725	130.08
12.73	-158.01
12.735	37.31
12.74	73.93
12.745	-245.90
12.75	-189.75
12.755	5.57
12.76	-265.43
12.765	-360.65
12.77	-106.74
12.775	-194.63
12.78	-446.10
12.785	-211.72
12.79	-138.48
12.795	-416.80
12.8	-324.03
12.805	-89.65
12.81	-331.35
12.815	-399.71
12.82	-123.83
12.825	-197.07
12.83	-433.89
12.835	-175.10
12.84	-94.53
12.845	-348.44
12.85	-253.22
12.855	-6.64
12.86	-223.93
12.865	-292.29
12.87	-9.08
12.875	-67.67
12.88	-302.05
12.885	-43.26
12.89	39.75
12.895	-236.13
12.9	-145.80
12.905	88.58
12.91	-150.68
12.915	-228.81
12.92	44.63
12.925	-33.49
12.93	-287.40
12.935	-40.82
12.94	29.98
12.945	-253.22
12.95	-162.89
12.955	61.72
12.96	-172.66
12.965	-248.34
12.97	20.22
12.975	-45.70
12.98	-302.05
12.985	-65.23
12.99	20.22
12.995	-272.76
13	-184.86
13.005	64.16
13.01	-179.98
13.015	-250.78
13.02	32.43
13.025	-33.49
13.03	-280.08
13.035	-35.94
13.04	47.07
13.045	-236.13
13.05	-148.24
13.055	91.02
13.06	-153.12
13.065	-228.81
13.07	51.96
13.075	-21.29
13.08	-272.76
13.085	-33.49
13.09	49.52
13.095	-228.81
13.1	-145.80
13.105	103.23
13.11	-126.27
13.115	-214.16
13.12	71.49
13.125	-6.64
13.13	-255.66
13.135	-6.64
13.14	78.81
13.145	-214.16
13.15	-123.83
13.155	105.67
13.16	-133.59
13.165	-204.39
13.17	71.49
13.175	5.57
13.18	-243.46
13.185	-1.75
13.19	78.81
13.195	-199.51
13.2	-109.18
13.205	125.20
13.21	-96.97
13.215	-179.98
13.22	91.02
13.225	34.87
13.23	-228.81
13.235	8.01
13.24	105.67
13.245	-187.30
13.25	-101.85
13.255	134.97
13.26	-101.85
13.265	-165.33
13.27	152.06
13.275	112.99
13.28	-111.62
13.285	142.29
13.29	230.18
13.295	-57.91
13.3	12.89
13.305	215.53
13.31	-48.14
13.315	-158.01
13.32	98.34
13.325	27.54
13.33	-228.81
13.335	-4.20
13.34	98.34
13.345	-199.51
13.35	-126.27
13.355	112.99
13.36	-150.68
13.365	-336.23
13.37	-248.34
13.375	-365.53
13.38	-350.88
13.385	598.84
13.39	1758.50
13.395	2549.60
13.4	2857.20
13.405	2857.20
13.41	2574.00
13.415	1485.10
13.42	879.61
13.425	266.80
13.43	-282.52
13.435	-182.42
13.44	-145.80
13.445	-463.19
13.45	-421.68
13.455	-192.19
13.46	-421.68
13.465	-519.34
13.47	-221.48
13.475	-277.64
13.48	-521.78
13.485	-267.87
13.49	-160.45
13.495	-433.89
13.5	-338.67
13.505	-79.88
13.51	-289.85
13.515	-360.65
13.52	-67.67
13.525	-121.39
13.53	-348.44
13.535	-84.76
13.54	22.66
13.545	-243.46
13.55	-160.45
13.555	103.23
13.56	-104.30
13.565	-172.66
13.57	127.64
13.575	88.58
13.58	-148.24
13.585	108.11
13.59	227.74
13.595	-50.58
13.6	44.63
13.605	305.87
13.61	91.02
13.615	-1.75
13.62	291.22
13.625	235.07
13.63	-18.85
13.635	217.98
13.64	303.43
13.645	22.66
13.65	91.02
13.655	320.52
13.66	71.49
13.665	-45.70
13.67	203.33
13.675	117.88
13.68	-172.66
13.685	27.54
13.69	98.34
13.695	-216.60
13.7	-175.10
13.705	47.07
13.71	-209.28
13.715	-336.23
13.72	-72.56
13.725	-150.68
13.73	-421.68
13.735	-199.51
13.74	-106.74
13.745	-389.94
13.75	-316.70
13.755	-77.44
13.76	-304.49
13.765	-402.15
13.77	-114.06
13.775	-167.77
13.78	-419.24
13.785	-167.77
13.79	-60.35
13.795	-331.35
13.8	-243.46
13.805	17.78
13.81	-189.75
13.815	-289.85
13.82	-1.75
13.825	-53.03
13.83	-319.14
13.835	-65.23
13.84	37.31
13.845	-245.90
13.85	-167.77
13.855	81.25
13.86	-138.48
13.865	-241.02
13.87	29.98
13.875	-28.61
13.88	-292.29
13.885	-67.67
13.89	27.54
13.895	-260.55
13.9	-194.63
13.905	51.96
13.91	-177.54
13.915	-287.40
13.92	-6.64
13.925	-60.35
13.93	-336.23
13.935	-89.65
13.94	-1.75
13.945	-272.76
13.95	-206.84
13.955	49.52
13.96	-172.66
13.965	-275.20
13.97	12.89
13.975	-48.14
13.98	-304.49
13.985	-82.32
13.99	22.66
13.995	-258.11
14	-187.30
14.005	59.28
14.01	-148.24
14.015	-262.99
14.02	25.10
14.025	-28.61
14.03	-294.73
14.035	-60.35
14.04	49.52
14.045	-233.69
14.05	-165.33
14.055	78.81
14.06	-140.92
14.065	-243.46
14.07	34.87
14.075	-13.96
14.08	-272.76
14.085	-38.38
14.09	64.16
14.095	-219.04
14.1	-153.12
14.105	93.46
14.11	-116.50
14.115	-228.81
14.12	61.72
14.125	17.78
14.13	-245.90
14.135	-6.64
14.14	103.23
14.145	-184.86
14.15	-121.39
14.155	132.52
14.16	-82.32
14.165	-189.75
14.17	86.14
14.175	34.87
14.18	-233.69
14.185	-1.75
14.19	98.34
14.195	-184.86
14.2	-118.94
14.205	139.85
14.21	-72.56
14.215	-177.54
14.22	98.34
14.225	42.19
14.23	-214.16
14.235	25.10
14.24	132.52
14.245	-145.80
14.25	-96.97
14.255	152.06
14.26	-48.14
14.265	-172.66
14.27	110.55
14.275	54.40
14.28	-204.39
14.285	64.16
14.29	196.00
14.295	-62.79
14.3	20.22
14.305	288.78
14.31	76.37
14.315	-40.82
14.32	208.21
14.325	110.55
14.33	-179.98
14.335	32.43
14.34	127.64
14.345	-160.45
14.35	-106.74
14.355	149.61
14.36	-67.67
14.365	-189.75
14.37	93.46
14.375	12.89
14.38	-324.03
14.385	-265.43
14.39	-219.04
14.395	-265.43
14.4	442.59
14.405	1668.20
14.41	2442.10
14.415	2857.20
14.42	2849.90
14.425	2610.60
14.43	1380.10
14.435	740.44
14.44	327.84
14.445	-228.81
14.45	-299.61
14.455	-89.65
14.46	-314.26
14.465	-448.54
14.47	-177.54
14.475	-219.04
14.48	-487.60
14.485	-248.34
14.49	-126.27
14.495	-404.59
14.5	-326.47
14.505	-57.91
14.51	-253.22
14.515	-350.88
14.52	-57.91
14.525	-92.09
14.53	-336.23
14.535	-87.21
14.54	42.19
14.545	-223.93
14.55	-153.12
14.555	115.43
14.56	-75.00
14.565	-179.98
14.57	115.43
14.575	93.46
14.58	-145.80
14.585	95.90
14.59	232.62
14.595	-35.94
14.6	37.31
14.605	310.75
14.61	122.76
14.615	10.45
14.62	315.63
14.625	279.01
14.63	15.34
14.635	259.48
14.64	371.79
14.645	95.90
14.65	142.29
14.655	386.43
14.66	171.59
14.665	29.98
14.67	303.43
14.675	239.95
14.68	-55.47
14.685	149.61
14.69	230.18
14.695	-79.88
14.7	-72.56
14.705	161.82
14.71	-75.00
14.715	-236.13
14.72	29.98
14.725	-45.70
14.73	-338.67
14.735	-131.15
14.74	-38.38
14.745	-341.12
14.75	-292.29
14.755	-40.82
14.76	-260.55
14.765	-375.30
14.77	-99.41
14.775	-148.24
14.78	-404.59
14.785	-179.98
14.79	-48.14
14.795	-316.70
14.8	-262.99
14.805	15.34
14.81	-177.54
14.815	-289.85
14.82	3.13
14.825	-31.05
14.83	-287.40
14.835	-53.03
14.84	78.81
14.845	-201.95
14.85	-150.68
14.855	125.20
14.86	-84.76
14.865	-209.28
14.87	73.93
14.875	22.66
14.88	-248.34
14.885	-26.17
14.89	83.70
14.895	-192.19
14.9	-145.80
14.905	103.23
14.91	-99.41
14.915	-231.25
14.92	42.19
14.925	8.01
14.93	-277.64
14.935	-60.35
14.94	59.28
14.945	-219.04
14.95	-179.98
14.955	88.58
14.96	-121.39
14.965	-243.46
14.97	39.75
14.975	10.45
14.98	-262.99
14.985	-35.94
14.99	81.25
14.995	-192.19
15	-148.24
